# format  : curve #1.x (tab) curve #1.y (tab) curve #2.x (tab) curve #2.y (tab) ...
# title   : Simulated Spectrum
# abscissa: Energy [eV]
# ordinate: Intensity [counts]
#==========================================================================================================
# Curve #1 (x,y): Config ##: 1
# Reference: W.S.M. Werner, W. Smekal and C. J. Powell, Simulation of Electron Spectra for Surface Analysis (SESSA V1.3) National Institute of Standards and Technology, Gaithersburg, MD (2010), 
# Reliability: 
# Remarks: 
#==========================================================================================================
5.000000e+001	3.919166e-006	
5.070801e+001	3.917264e-006	
5.141602e+001	3.915718e-006	
5.212402e+001	3.914567e-006	
5.283203e+001	3.913847e-006	
5.354004e+001	3.913595e-006	
5.424805e+001	3.913831e-006	
5.495605e+001	3.914585e-006	
5.566406e+001	3.915874e-006	
5.637207e+001	3.917692e-006	
5.708008e+001	3.919967e-006	
5.778809e+001	3.922576e-006	
5.849609e+001	3.925433e-006	
5.920410e+001	3.928577e-006	
5.991211e+001	3.932173e-006	
6.062012e+001	3.936412e-006	
6.132813e+001	3.941420e-006	
6.203613e+001	3.947318e-006	
6.274414e+001	3.954233e-006	
6.345215e+001	3.961948e-006	
6.416016e+001	3.969261e-006	
6.486816e+001	3.973959e-006	
6.557617e+001	3.974612e-006	
6.628418e+001	3.972425e-006	
6.699219e+001	3.969989e-006	
6.770020e+001	3.968624e-006	
6.840820e+001	3.967383e-006	
6.911621e+001	3.964107e-006	
6.982422e+001	3.957804e-006	
7.053223e+001	3.949744e-006	
7.124023e+001	3.941888e-006	
7.194824e+001	3.935360e-006	
7.265625e+001	3.930391e-006	
7.336426e+001	3.926785e-006	
7.407227e+001	3.924245e-006	
7.478027e+001	3.922513e-006	
7.548828e+001	3.921387e-006	
7.619629e+001	3.920718e-006	
7.690430e+001	3.920399e-006	
7.761230e+001	3.920353e-006	
7.832031e+001	3.920516e-006	
7.902832e+001	3.920847e-006	
7.973633e+001	3.921314e-006	
8.044434e+001	3.921898e-006	
8.115234e+001	3.922582e-006	
8.186035e+001	3.923358e-006	
8.256836e+001	3.924219e-006	
8.327637e+001	3.925156e-006	
8.398438e+001	3.926164e-006	
8.469238e+001	3.927238e-006	
8.540039e+001	3.928375e-006	
8.610840e+001	3.929563e-006	
8.681641e+001	3.930802e-006	
8.752441e+001	3.932082e-006	
8.823242e+001	3.933400e-006	
8.894043e+001	3.934758e-006	
8.964844e+001	3.936148e-006	
9.035645e+001	3.937570e-006	
9.106445e+001	3.939032e-006	
9.177246e+001	3.940551e-006	
9.248047e+001	3.942126e-006	
9.318848e+001	3.943728e-006	
9.389648e+001	3.945336e-006	
9.460449e+001	3.946965e-006	
9.531250e+001	3.948651e-006	
9.602051e+001	3.950320e-006	
9.672852e+001	3.951747e-006	
9.743652e+001	3.952728e-006	
9.814453e+001	3.953300e-006	
9.885254e+001	3.953714e-006	
9.956055e+001	3.954185e-006	
1.002686e+002	3.954809e-006	
1.009766e+002	3.955605e-006	
1.016846e+002	3.956558e-006	
1.023926e+002	3.957661e-006	
1.031006e+002	3.958899e-006	
1.038086e+002	3.960258e-006	
1.045166e+002	3.961694e-006	
1.052246e+002	3.963102e-006	
1.059326e+002	3.964347e-006	
1.066406e+002	3.965362e-006	
1.073486e+002	3.966226e-006	
1.080566e+002	3.967089e-006	
1.087646e+002	3.968058e-006	
1.094727e+002	3.969167e-006	
1.101807e+002	3.970411e-006	
1.108887e+002	3.971719e-006	
1.115967e+002	3.972959e-006	
1.123047e+002	3.974016e-006	
1.130127e+002	3.974899e-006	
1.137207e+002	3.975750e-006	
1.144287e+002	3.976726e-006	
1.151367e+002	3.977930e-006	
1.158447e+002	3.979403e-006	
1.165527e+002	3.981126e-006	
1.172607e+002	3.982995e-006	
1.179688e+002	3.984778e-006	
1.186768e+002	3.986207e-006	
1.193848e+002	3.987208e-006	
1.200928e+002	3.987991e-006	
1.208008e+002	3.988820e-006	
1.215088e+002	3.989836e-006	
1.222168e+002	3.991070e-006	
1.229248e+002	3.992487e-006	
1.236328e+002	3.994041e-006	
1.243408e+002	3.995689e-006	
1.250488e+002	3.997387e-006	
1.257568e+002	3.999092e-006	
1.264648e+002	4.000771e-006	
1.271729e+002	4.002396e-006	
1.278809e+002	4.003940e-006	
1.285889e+002	4.005380e-006	
1.292969e+002	4.006692e-006	
1.300049e+002	4.007856e-006	
1.307129e+002	4.008869e-006	
1.314209e+002	4.009723e-006	
1.321289e+002	4.010420e-006	
1.328369e+002	4.010952e-006	
1.335449e+002	4.011323e-006	
1.342529e+002	4.011531e-006	
1.349609e+002	4.011598e-006	
1.356689e+002	4.011556e-006	
1.363770e+002	4.011446e-006	
1.370850e+002	4.011313e-006	
1.377930e+002	4.011197e-006	
1.385010e+002	4.011133e-006	
1.392090e+002	4.011152e-006	
1.399170e+002	4.011295e-006	
1.406250e+002	4.011593e-006	
1.413330e+002	4.012078e-006	
1.420410e+002	4.012759e-006	
1.427490e+002	4.013641e-006	
1.434570e+002	4.014721e-006	
1.441650e+002	4.015993e-006	
1.448730e+002	4.017450e-006	
1.455811e+002	4.019059e-006	
1.462891e+002	4.020804e-006	
1.469971e+002	4.022691e-006	
1.477051e+002	4.024783e-006	
1.484131e+002	4.027163e-006	
1.491211e+002	4.029906e-006	
1.498291e+002	4.033056e-006	
1.505371e+002	4.036632e-006	
1.512451e+002	4.040559e-006	
1.519531e+002	4.044523e-006	
1.526611e+002	4.047854e-006	
1.533691e+002	4.049939e-006	
1.540771e+002	4.050946e-006	
1.547852e+002	4.051733e-006	
1.554932e+002	4.052938e-006	
1.562012e+002	4.054343e-006	
1.569092e+002	4.055026e-006	
1.576172e+002	4.054412e-006	
1.583252e+002	4.053081e-006	
1.590332e+002	4.052117e-006	
1.597412e+002	4.051886e-006	
1.604492e+002	4.051568e-006	
1.611572e+002	4.049815e-006	
1.618652e+002	4.046135e-006	
1.625732e+002	4.041427e-006	
1.632813e+002	4.036952e-006	
1.639893e+002	4.033460e-006	
1.646973e+002	4.031185e-006	
1.654053e+002	4.030097e-006	
1.661133e+002	4.030099e-006	
1.668213e+002	4.031079e-006	
1.675293e+002	4.032939e-006	
1.682373e+002	4.035546e-006	
1.689453e+002	4.038592e-006	
1.696533e+002	4.041498e-006	
1.703613e+002	4.043726e-006	
1.710693e+002	4.045383e-006	
1.717773e+002	4.047135e-006	
1.724854e+002	4.049482e-006	
1.731934e+002	4.052232e-006	
1.739014e+002	4.054586e-006	
1.746094e+002	4.056028e-006	
1.753174e+002	4.057027e-006	
1.760254e+002	4.058453e-006	
1.767334e+002	4.060490e-006	
1.774414e+002	4.062163e-006	
1.781494e+002	4.061981e-006	
1.788574e+002	4.059428e-006	
1.795654e+002	4.055553e-006	
1.802734e+002	4.051842e-006	
1.809814e+002	4.049245e-006	
1.816895e+002	4.048112e-006	
1.823975e+002	4.048438e-006	
1.831055e+002	4.049983e-006	
1.838135e+002	4.052125e-006	
1.845215e+002	4.053724e-006	
1.852295e+002	4.053577e-006	
1.859375e+002	4.051446e-006	
1.866455e+002	4.048280e-006	
1.873535e+002	4.045249e-006	
1.880615e+002	4.043060e-006	
1.887695e+002	4.041958e-006	
1.894775e+002	4.041965e-006	
1.901855e+002	4.042987e-006	
1.908936e+002	4.044801e-006	
1.916016e+002	4.046926e-006	
1.923096e+002	4.048631e-006	
1.930176e+002	4.049386e-006	
1.937256e+002	4.049355e-006	
1.944336e+002	4.049165e-006	
1.951416e+002	4.049334e-006	
1.958496e+002	4.050083e-006	
1.965576e+002	4.051470e-006	
1.972656e+002	4.053525e-006	
1.979736e+002	4.056294e-006	
1.986816e+002	4.059821e-006	
1.993896e+002	4.064118e-006	
2.000977e+002	4.069068e-006	
2.008057e+002	4.074244e-006	
2.015137e+002	4.078780e-006	
2.022217e+002	4.081727e-006	
2.029297e+002	4.082862e-006	
2.036377e+002	4.082864e-006	
2.043457e+002	4.082563e-006	
2.050537e+002	4.082390e-006	
2.057617e+002	4.082404e-006	
2.064697e+002	4.082482e-006	
2.071777e+002	4.082464e-006	
2.078857e+002	4.082234e-006	
2.085938e+002	4.081743e-006	
2.093018e+002	4.081000e-006	
2.100098e+002	4.080049e-006	
2.107178e+002	4.078942e-006	
2.114258e+002	4.077711e-006	
2.121338e+002	4.076401e-006	
2.128418e+002	4.075059e-006	
2.135498e+002	4.073773e-006	
2.142578e+002	4.072656e-006	
2.149658e+002	4.071831e-006	
2.156738e+002	4.071384e-006	
2.163818e+002	4.071357e-006	
2.170898e+002	4.071761e-006	
2.177979e+002	4.072574e-006	
2.185059e+002	4.073800e-006	
2.192139e+002	4.075433e-006	
2.199219e+002	4.077491e-006	
2.206299e+002	4.080001e-006	
2.213379e+002	4.082976e-006	
2.220459e+002	4.086398e-006	
2.227539e+002	4.090185e-006	
2.234619e+002	4.094185e-006	
2.241699e+002	4.098262e-006	
2.248779e+002	4.102408e-006	
2.255859e+002	4.106822e-006	
2.262939e+002	4.111858e-006	
2.270020e+002	4.117891e-006	
2.277100e+002	4.125220e-006	
2.284180e+002	4.134014e-006	
2.291260e+002	4.144157e-006	
2.298340e+002	4.154710e-006	
2.305420e+002	4.163493e-006	
2.312500e+002	4.168272e-006	
2.319580e+002	4.169365e-006	
2.326660e+002	4.169744e-006	
2.333740e+002	4.171769e-006	
2.340820e+002	4.174394e-006	
2.347900e+002	4.173346e-006	
2.354980e+002	4.164975e-006	
2.362061e+002	4.150369e-006	
2.369141e+002	4.134096e-006	
2.376221e+002	4.120107e-006	
2.383301e+002	4.110125e-006	
2.390381e+002	4.104339e-006	
2.397461e+002	4.102350e-006	
2.404541e+002	4.103767e-006	
2.411621e+002	4.108501e-006	
2.418701e+002	4.116936e-006	
2.425781e+002	4.129945e-006	
2.432861e+002	4.148770e-006	
2.439941e+002	4.174609e-006	
2.447021e+002	4.207691e-006	
2.454102e+002	4.245337e-006	
2.461182e+002	4.279722e-006	
2.468262e+002	4.299439e-006	
2.475342e+002	4.297820e-006	
2.482422e+002	4.279041e-006	
2.489502e+002	4.253718e-006	
2.496582e+002	4.231213e-006	
2.503662e+002	4.215948e-006	
2.510742e+002	4.207403e-006	
2.517822e+002	4.202077e-006	
2.524902e+002	4.197029e-006	
2.531982e+002	4.193027e-006	
2.539063e+002	4.193732e-006	
2.546143e+002	4.202554e-006	
2.553223e+002	4.220574e-006	
2.560303e+002	4.245001e-006	
2.567383e+002	4.267647e-006	
2.574463e+002	4.277097e-006	
2.581543e+002	4.267004e-006	
2.588623e+002	4.241040e-006	
2.595703e+002	4.207927e-006	
2.602783e+002	4.175397e-006	
2.609863e+002	4.148142e-006	
2.616943e+002	4.128006e-006	
2.624023e+002	4.115148e-006	
2.631104e+002	4.109257e-006	
2.638184e+002	4.110173e-006	
2.645264e+002	4.118076e-006	
2.652344e+002	4.133242e-006	
2.659424e+002	4.155129e-006	
2.666504e+002	4.180475e-006	
2.673584e+002	4.201353e-006	
2.680664e+002	4.207445e-006	
2.687744e+002	4.194488e-006	
2.694824e+002	4.168602e-006	
2.701904e+002	4.139763e-006	
2.708984e+002	4.114628e-006	
2.716064e+002	4.095564e-006	
2.723145e+002	4.082580e-006	
2.730225e+002	4.074902e-006	
2.737305e+002	4.071577e-006	
2.744385e+002	4.071396e-006	
2.751465e+002	4.072527e-006	
2.758545e+002	4.072613e-006	
2.765625e+002	4.070103e-006	
2.772705e+002	4.065524e-006	
2.779785e+002	4.060666e-006	
2.786865e+002	4.056936e-006	
2.793945e+002	4.054769e-006	
2.801025e+002	4.053836e-006	
2.808105e+002	4.053303e-006	
2.815186e+002	4.052170e-006	
2.822266e+002	4.049882e-006	
2.829346e+002	4.046648e-006	
2.836426e+002	4.043025e-006	
2.843506e+002	4.039392e-006	
2.850586e+002	4.035870e-006	
2.857666e+002	4.032437e-006	
2.864746e+002	4.029065e-006	
2.871826e+002	4.025776e-006	
2.878906e+002	4.022642e-006	
2.885986e+002	4.019741e-006	
2.893066e+002	4.017129e-006	
2.900146e+002	4.014808e-006	
2.907227e+002	4.012747e-006	
2.914307e+002	4.010928e-006	
2.921387e+002	4.009386e-006	
2.928467e+002	4.008210e-006	
2.935547e+002	4.007526e-006	
2.942627e+002	4.007463e-006	
2.949707e+002	4.008110e-006	
2.956787e+002	4.009496e-006	
2.963867e+002	4.011577e-006	
2.970947e+002	4.014247e-006	
2.978027e+002	4.017376e-006	
2.985107e+002	4.020843e-006	
2.992188e+002	4.024578e-006	
2.999268e+002	4.028539e-006	
3.006348e+002	4.032640e-006	
3.013428e+002	4.036724e-006	
3.020508e+002	4.040618e-006	
3.027588e+002	4.044354e-006	
3.034668e+002	4.048363e-006	
3.041748e+002	4.053488e-006	
3.048828e+002	4.060821e-006	
3.055908e+002	4.071479e-006	
3.062988e+002	4.086274e-006	
3.070068e+002	4.104971e-006	
3.077148e+002	4.124833e-006	
3.084229e+002	4.139391e-006	
3.091309e+002	4.140895e-006	
3.098389e+002	4.127093e-006	
3.105469e+002	4.103686e-006	
3.112549e+002	4.078636e-006	
3.119629e+002	4.056881e-006	
3.126709e+002	4.039949e-006	
3.133789e+002	4.027572e-006	
3.140869e+002	4.018928e-006	
3.147949e+002	4.013197e-006	
3.155029e+002	4.009726e-006	
3.162109e+002	4.008028e-006	
3.169189e+002	4.007749e-006	
3.176270e+002	4.008599e-006	
3.183350e+002	4.010291e-006	
3.190430e+002	4.012580e-006	
3.197510e+002	4.015392e-006	
3.204590e+002	4.018947e-006	
3.211670e+002	4.023761e-006	
3.218750e+002	4.030531e-006	
3.225830e+002	4.039985e-006	
3.232910e+002	4.052663e-006	
3.239990e+002	4.068374e-006	
3.247070e+002	4.085114e-006	
3.254150e+002	4.098121e-006	
3.261230e+002	4.101646e-006	
3.268311e+002	4.093899e-006	
3.275391e+002	4.078950e-006	
3.282471e+002	4.062596e-006	
3.289551e+002	4.048447e-006	
3.296631e+002	4.037609e-006	
3.303711e+002	4.029863e-006	
3.310791e+002	4.024603e-006	
3.317871e+002	4.021216e-006	
3.324951e+002	4.019214e-006	
3.332031e+002	4.018222e-006	
3.339111e+002	4.017959e-006	
3.346191e+002	4.018218e-006	
3.353271e+002	4.018840e-006	
3.360352e+002	4.019705e-006	
3.367432e+002	4.020712e-006	
3.374512e+002	4.021780e-006	
3.381592e+002	4.022836e-006	
3.388672e+002	4.023840e-006	
3.395752e+002	4.024762e-006	
3.402832e+002	4.025599e-006	
3.409912e+002	4.026358e-006	
3.416992e+002	4.027049e-006	
3.424072e+002	4.027676e-006	
3.431152e+002	4.028247e-006	
3.438232e+002	4.028770e-006	
3.445313e+002	4.029272e-006	
3.452393e+002	4.029784e-006	
3.459473e+002	4.030349e-006	
3.466553e+002	4.030995e-006	
3.473633e+002	4.031755e-006	
3.480713e+002	4.032642e-006	
3.487793e+002	4.033674e-006	
3.494873e+002	4.034873e-006	
3.501953e+002	4.036263e-006	
3.509033e+002	4.037876e-006	
3.516113e+002	4.039734e-006	
3.523193e+002	4.041859e-006	
3.530273e+002	4.044263e-006	
3.537354e+002	4.046933e-006	
3.544434e+002	4.049837e-006	
3.551514e+002	4.052945e-006	
3.558594e+002	4.056261e-006	
3.565674e+002	4.059862e-006	
3.572754e+002	4.063875e-006	
3.579834e+002	4.068447e-006	
3.586914e+002	4.073715e-006	
3.593994e+002	4.079770e-006	
3.601074e+002	4.086572e-006	
3.608154e+002	4.093693e-006	
3.615234e+002	4.100149e-006	
3.622314e+002	4.104902e-006	
3.629395e+002	4.107980e-006	
3.636475e+002	4.110572e-006	
3.643555e+002	4.113688e-006	
3.650635e+002	4.116982e-006	
3.657715e+002	4.118774e-006	
3.664795e+002	4.117576e-006	
3.671875e+002	4.113691e-006	
3.678955e+002	4.108813e-006	
3.686035e+002	4.104452e-006	
3.693115e+002	4.101266e-006	
3.700195e+002	4.099298e-006	
3.707275e+002	4.098357e-006	
3.714355e+002	4.098210e-006	
3.721436e+002	4.098666e-006	
3.728516e+002	4.099577e-006	
3.735596e+002	4.100834e-006	
3.742676e+002	4.102360e-006	
3.749756e+002	4.104092e-006	
3.756836e+002	4.105992e-006	
3.763916e+002	4.108023e-006	
3.770996e+002	4.110163e-006	
3.778076e+002	4.112389e-006	
3.785156e+002	4.114689e-006	
3.792236e+002	4.117048e-006	
3.799316e+002	4.119460e-006	
3.806396e+002	4.121913e-006	
3.813477e+002	4.124392e-006	
3.820557e+002	4.126893e-006	
3.827637e+002	4.129407e-006	
3.834717e+002	4.131928e-006	
3.841797e+002	4.134450e-006	
3.848877e+002	4.136967e-006	
3.855957e+002	4.139476e-006	
3.863037e+002	4.141974e-006	
3.870117e+002	4.144457e-006	
3.877197e+002	4.146925e-006	
3.884277e+002	4.149376e-006	
3.891357e+002	4.151812e-006	
3.898438e+002	4.154234e-006	
3.905518e+002	4.156648e-006	
3.912598e+002	4.159055e-006	
3.919678e+002	4.161462e-006	
3.926758e+002	4.163874e-006	
3.933838e+002	4.166302e-006	
3.940918e+002	4.168754e-006	
3.947998e+002	4.171236e-006	
3.955078e+002	4.173758e-006	
3.962158e+002	4.176330e-006	
3.969238e+002	4.178953e-006	
3.976318e+002	4.181643e-006	
3.983398e+002	4.184403e-006	
3.990479e+002	4.187242e-006	
3.997559e+002	4.190160e-006	
4.004639e+002	4.193162e-006	
4.011719e+002	4.196248e-006	
4.018799e+002	4.199426e-006	
4.025879e+002	4.202703e-006	
4.032959e+002	4.206082e-006	
4.040039e+002	4.209565e-006	
4.047119e+002	4.213146e-006	
4.054199e+002	4.216805e-006	
4.061279e+002	4.220514e-006	
4.068359e+002	4.224250e-006	
4.075439e+002	4.227974e-006	
4.082520e+002	4.231641e-006	
4.089600e+002	4.235224e-006	
4.096680e+002	4.238690e-006	
4.103760e+002	4.242002e-006	
4.110840e+002	4.245129e-006	
4.117920e+002	4.248040e-006	
4.125000e+002	4.250715e-006	
4.132080e+002	4.253160e-006	
4.139160e+002	4.255378e-006	
4.146240e+002	4.257401e-006	
4.153320e+002	4.259266e-006	
4.160400e+002	4.261023e-006	
4.167480e+002	4.262691e-006	
4.174561e+002	4.264288e-006	
4.181641e+002	4.265834e-006	
4.188721e+002	4.267387e-006	
4.195801e+002	4.269011e-006	
4.202881e+002	4.270762e-006	
4.209961e+002	4.272662e-006	
4.217041e+002	4.274717e-006	
4.224121e+002	4.276921e-006	
4.231201e+002	4.279268e-006	
4.238281e+002	4.281769e-006	
4.245361e+002	4.284439e-006	
4.252441e+002	4.287303e-006	
4.259521e+002	4.290368e-006	
4.266602e+002	4.293633e-006	
4.273682e+002	4.297066e-006	
4.280762e+002	4.300613e-006	
4.287842e+002	4.304214e-006	
4.294922e+002	4.307864e-006	
4.302002e+002	4.311675e-006	
4.309082e+002	4.315888e-006	
4.316162e+002	4.320811e-006	
4.323242e+002	4.326752e-006	
4.330322e+002	4.333988e-006	
4.337402e+002	4.342662e-006	
4.344482e+002	4.352472e-006	
4.351563e+002	4.362167e-006	
4.358643e+002	4.369691e-006	
4.365723e+002	4.373914e-006	
4.372803e+002	4.376127e-006	
4.379883e+002	4.378757e-006	
4.386963e+002	4.382700e-006	
4.394043e+002	4.386121e-006	
4.401123e+002	4.385904e-006	
4.408203e+002	4.380922e-006	
4.415283e+002	4.373307e-006	
4.422363e+002	4.366171e-006	
4.429443e+002	4.361363e-006	
4.436523e+002	4.359312e-006	
4.443604e+002	4.359856e-006	
4.450684e+002	4.362823e-006	
4.457764e+002	4.368089e-006	
4.464844e+002	4.375464e-006	
4.471924e+002	4.384612e-006	
4.479004e+002	4.395049e-006	
4.486084e+002	4.406147e-006	
4.493164e+002	4.416998e-006	
4.500244e+002	4.426437e-006	
4.507324e+002	4.433656e-006	
4.514404e+002	4.438827e-006	
4.521484e+002	4.442959e-006	
4.528564e+002	4.446822e-006	
4.535645e+002	4.449928e-006	
4.542725e+002	4.450565e-006	
4.549805e+002	4.446770e-006	
4.556885e+002	4.437960e-006	
4.563965e+002	4.425753e-006	
4.571045e+002	4.412873e-006	
4.578125e+002	4.401634e-006	
4.585205e+002	4.392964e-006	
4.592285e+002	4.385991e-006	
4.599365e+002	4.378883e-006	
4.606445e+002	4.370382e-006	
4.613525e+002	4.360666e-006	
4.620605e+002	4.351306e-006	
4.627686e+002	4.343454e-006	
4.634766e+002	4.337572e-006	
4.641846e+002	4.334578e-006	
4.648926e+002	4.335239e-006	
4.656006e+002	4.339224e-006	
4.663086e+002	4.345583e-006	
4.670166e+002	4.353294e-006	
4.677246e+002	4.361672e-006	
4.684326e+002	4.371032e-006	
4.691406e+002	4.383341e-006	
4.698486e+002	4.401512e-006	
4.705566e+002	4.423774e-006	
4.712646e+002	4.439552e-006	
4.719727e+002	4.441894e-006	
4.726807e+002	4.438981e-006	
4.733887e+002	4.441359e-006	
4.740967e+002	4.455443e-006	
4.748047e+002	4.485329e-006	
4.755127e+002	4.538976e-006	
4.762207e+002	4.644097e-006	
4.769287e+002	4.913346e-006	
4.776367e+002	5.559129e-006	
4.783447e+002	5.433457e-006	
4.790527e+002	4.892415e-006	
4.797607e+002	4.597107e-006	
4.804688e+002	4.489672e-006	
4.811768e+002	4.442459e-006	
4.818848e+002	4.418884e-006	
4.825928e+002	4.406760e-006	
4.833008e+002	4.401079e-006	
4.840088e+002	4.399419e-006	
4.847168e+002	4.400422e-006	
4.854248e+002	4.403244e-006	
4.861328e+002	4.407310e-006	
4.868408e+002	4.412216e-006	
4.875488e+002	4.417681e-006	
4.882568e+002	4.423508e-006	
4.889648e+002	4.429566e-006	
4.896729e+002	4.435835e-006	
4.903809e+002	4.442483e-006	
4.910889e+002	4.449945e-006	
4.917969e+002	4.458935e-006	
4.925049e+002	4.470381e-006	
4.932129e+002	4.485315e-006	
4.939209e+002	4.504486e-006	
4.946289e+002	4.527371e-006	
4.953369e+002	4.550418e-006	
4.960449e+002	4.566145e-006	
4.967529e+002	4.566803e-006	
4.974609e+002	4.551403e-006	
4.981689e+002	4.526691e-006	
4.988770e+002	4.500827e-006	
4.995850e+002	4.478585e-006	
5.002930e+002	4.461369e-006	
5.010010e+002	4.448919e-006	
5.017090e+002	4.440505e-006	
5.024170e+002	4.435416e-006	
5.031250e+002	4.433082e-006	
5.038330e+002	4.433094e-006	
5.045410e+002	4.435140e-006	
5.052490e+002	4.439005e-006	
5.059570e+002	4.444526e-006	
